# Telescope:  LTRT
# Description: 2.4m parabolic C-Band antenna
# Location: Glenorie, NSW, Australia
# Coordinates: 151.008 E, 33.5959 S
# Mode: cal
# Centre frequency:  3700 MHz
# Sample time (ms): 10
# Receiver Gain (dB): 5
# Observation length (s): 7200
# Local Time start:  Sat Feb 23 13:20:43 2013
# UTC start:  Sat Feb 23 02:20:43 2013
# LST start (hh:mm:ss):  22:37:17
# Source: no_lnb
# Declination (degrees): -33.6
0.00114722 31.275
0.00218611 31.5425
0.003275 31.815
0.00443056 32.335
0.00558611 32.42
0.00674167 32.9625
0.00789722 33.2975
0.00905278 33.5925
0.0102083 33.8525
0.0113639 34.165
0.0125194 34.6225
0.013675 34.5975
0.0148306 35.2125
0.0159861 35.2925
0.0171417 35.3075
0.0182972 35.635
0.0194528 35.7875
0.0206083 35.9975
0.0217639 36.4275
0.0229194 36.7525
0.024075 36.95
0.0252306 37.0475
0.0263861 37.09
0.0275417 37.165
0.0287917 37.7275
0.0300611 37.95
0.0313333 37.955
0.0326028 38.05
0.033875 38.2475
0.0351472 38.63
0.0364167 38.755
0.0376889 38.7875
0.0389583 38.83
0.0402306 39.1925
0.0415028 39.3875
0.0427722 39.6875
0.0440444 39.5225
0.0453139 39.8425
0.0465861 39.9175
0.0478583 40.04
0.0491278 39.87
0.0504 40.325
0.0516694 40.6725
0.0529417 40.6175
0.0542139 40.7725
0.0554833 40.77
0.0567556 40.9575
0.058025 41.1975
0.0592972 41.425
0.0605694 41.665
0.0618389 41.395
0.0631111 41.6975
0.0643806 41.795
0.0656528 41.77
0.066925 42.04
0.0681944 42.0775
0.0694667 42.3475
0.0707361 42.4375
0.0720083 42.4475
0.0732806 42.545
0.07455 42.7675
0.0758222 42.8825
0.0770917 42.66
0.0783639 42.8575
0.0796361 43
0.0809056 43.31
0.0821778 43.32
0.0834472 43.6975
0.0847194 43.63
0.0859917 43.8025
0.0872611 43.955
0.0885333 43.89
0.0898028 44.015
0.091075 44.0875
0.0923472 44.2
0.0936167 44.2125
0.0948889 44.1325
0.0961583 44.585
0.0974306 44.565
0.0987028 44.83
0.0999722 44.7
0.101244 44.8925
0.102514 45.13
0.103786 45.1775
0.105058 44.9825
0.106328 45.2
0.1076 45.4075
0.108869 45.37
0.110142 45.6
0.111414 45.4425
0.112683 45.7725
0.113956 45.465
0.115225 45.8425
0.116497 45.755
0.117769 46.08
0.119039 45.9625
0.120311 46.1775
0.121581 46.315
0.122853 46.3125
0.124125 46.2225
0.125394 46.24
0.126667 46.4775
0.127936 46.6325
0.129208 46.815
0.130481 46.5475
0.13175 46.4925
0.133022 46.7175
0.134292 46.8025
0.135564 46.9925
0.136836 46.9
0.138106 47.245
0.139378 47.095
0.140647 47.2675
0.141919 47.395
0.143192 47.33
0.144461 47.425
0.145733 47.5575
0.147003 47.4725
0.148275 47.6725
0.149547 47.8025
0.150817 47.6825
0.152089 47.64
0.153358 47.6925
0.154631 47.845
0.155903 48.0875
0.157172 47.825
0.158444 48.0675
0.159714 48.0675
0.160986 47.9875
0.162258 47.9775
0.163528 48.2075
0.1648 48.0425
0.166069 48.5125
0.167342 48.44
0.168614 48.185
0.169883 48.175
0.171156 48.6225
0.172425 48.57
0.173697 48.5975
0.174969 48.5925
0.176239 48.8325
0.177511 48.9075
0.178781 48.7475
0.180053 48.895
0.181325 48.8575
0.182594 48.8875
0.183867 48.84
0.185136 48.885
0.186408 49.13
0.187681 49.1275
0.18895 49.335
0.190222 49.25
0.191492 49.27
0.192764 49.2475
0.194036 49.1925
0.195306 49.425
0.196578 49.2875
0.197847 49.3175
0.199119 49.7675
0.200392 49.545
0.201661 49.7025
0.202933 49.7
0.204203 49.8625
0.205475 49.715
0.206747 49.8825
0.208017 49.9675
0.209289 50.0775
0.210558 49.8025
0.211831 49.98
0.213103 50.1125
0.214372 50.045
0.215644 50.1125
0.216914 50.11
0.218186 50.335
0.219458 50.205
0.220728 50.35
0.222 50.5375
0.223269 50.485
0.224542 50.4
0.225814 50.2975
0.227083 50.45
0.228356 50.6725
0.229625 50.4775
0.230897 50.695
0.232169 50.38
0.233439 50.765
0.234711 51.115
0.235981 50.865
0.237253 50.85
0.238525 50.6975
0.239794 50.98
0.241067 50.87
0.242336 51.1525
0.243608 51.06
0.244881 51.055
0.24615 51.0725
0.247422 51.15
0.248692 51.1625
0.249964 51.36
0.251236 51.3175
0.252506 51.1175
0.253778 51.25
0.255047 51.3925
0.256319 51.5
0.257592 51.6375
0.258861 51.5125
0.260133 51.83
0.261403 51.39
0.262675 51.8075
0.263947 51.79
0.265217 51.7625
0.266489 51.775
0.267758 51.7
0.269031 51.7
0.270303 51.8125
0.271572 51.95
0.272844 51.8975
0.274114 51.78
0.275386 51.9275
0.276658 52.14
0.277942 52.1425
0.279328 52.1525
0.280717 52.0925
0.282103 52.09
0.283489 52.14
0.284875 52.1375
0.286261 52.2825
0.28765 52.2225
0.289036 52.235
0.290422 52.4475
0.291808 52.53
0.293194 52.6325
0.294583 52.425
0.295969 52.95
0.297356 52.67
0.298742 52.615
0.300128 52.805
0.301514 52.96
0.302903 52.785
0.304289 52.81
0.305675 53.07
0.307061 52.8875
0.30845 52.8025
0.309836 52.925
0.311222 52.8025
0.312608 52.8125
0.313994 52.91
0.315383 53.4475
0.316769 53.1975
0.318156 53.14
0.319542 53.18
0.320928 53.12
0.322314 53.5275
0.323703 53.2475
0.325089 53.2775
0.326475 53.245
0.327861 53.33
0.32925 53.1675
0.330636 53.3375
0.332022 53.095
0.333408 53.4725
0.334794 53.435
0.336183 53.445
0.337569 53.795
0.338956 53.5
0.340342 53.49
0.341728 53.5375
0.343114 53.7925
0.344503 53.525
0.345889 54.165
0.347275 53.9025
0.348661 53.68
0.35005 53.5875
0.351436 53.8175
0.352822 53.675
0.354208 54.1225
0.355594 53.9
0.356983 54.1175
0.358369 53.9125
0.359756 54.055
0.361142 54.2375
0.362528 53.935
0.363914 53.9225
0.365303 54.0825
0.366689 54.255
0.368075 54.185
0.369461 53.8075
0.37085 54.0575
0.372236 54.14
0.373622 54.1625
0.375008 54.465
0.376394 54.225
0.377783 54.31
0.379169 54.4175
0.380556 54.295
0.381942 54.1425
0.383328 54.42
0.384714 54.4175
0.386103 54.5875
0.387489 54.2275
0.388875 54.55
0.390261 54.37
0.39165 54.3025
0.393036 54.5475
0.394422 54.5375
0.395808 54.4575
0.397194 54.415
0.398583 54.67
0.399969 54.3525
0.401356 54.41
0.402742 54.8925
0.404128 54.8575
0.405514 54.7775
0.406903 54.7425
0.408289 54.48
0.409675 54.5975
0.411061 55.035
0.412447 54.8575
0.413836 54.8825
0.415222 54.8075
0.416608 55.035
0.417994 54.9725
0.419383 55.01
0.420769 54.6875
0.422156 55.3725
0.423542 54.775
0.424928 55.07
0.426314 55.245
0.427703 55.075
0.429089 55.1725
0.430475 55.1675
0.431861 55.0075
0.433247 54.9675
0.434636 55.25
0.436022 54.9575
0.437408 55.1175
0.438794 55.075
0.440183 55.16
0.441569 55.1125
0.442956 55.09
0.444342 55.235
0.445728 55.315
0.447114 55.1325
0.448503 55.2
0.449889 55.38
0.451275 55.1875
0.452661 55.2775
0.454047 55.32
0.455436 55.205
0.456822 55.1275
0.458208 55.4425
0.459594 55.3275
0.460983 55.175
0.462369 55.3525
0.463756 55.2325
0.465142 55.4975
0.466528 55.215
0.467917 55.2525
0.469303 55.42
0.470689 55.4475
0.472075 55.6275
0.473461 55.33
0.474847 55.4325
0.476236 55.5075
0.477622 55.52
0.479008 55.38
0.480394 55.4975
0.481783 55.5125
0.483169 55.8075
0.484556 55.5875
0.485942 55.9025
0.487328 55.5575
0.488717 55.705
0.490103 55.485
0.491489 55.6525
0.492875 55.315
0.494261 55.5625
0.495647 55.845
0.497036 55.6475
0.498422 55.99
0.499808 55.9775
0.501194 55.73
0.502583 55.6225
0.503969 55.7925
0.505356 55.865
0.506742 55.795
0.508128 55.9475
0.509517 55.5775
0.510903 55.9525
0.512289 55.81
0.513675 56
0.515061 55.7825
0.516447 56.0125
0.517836 55.89
0.519222 55.8
0.520608 55.7725
0.521994 55.9375
0.523383 55.8975
0.524769 56.02
0.526156 56.0575
0.527542 55.9425
0.528928 56.19
0.530317 55.945
0.531703 56.0325
0.533089 55.8225
0.534475 55.7825
0.535861 56.47
0.537247 55.9375
0.538636 56
0.540022 56.2725
0.541408 55.9675
0.542794 56.2275
0.544183 56.4225
0.545569 55.9275
0.546956 56.2825
0.548342 56.025
0.549728 56.1775
0.551117 56.01
0.552503 56.22
0.553889 56.01
0.555275 56.155
0.556661 56.08
0.558047 55.9725
0.559436 56.365
0.560822 56.2025
0.562208 56.2975
0.563594 55.9525
0.564983 56.02
0.566369 56.4675
0.567756 56.1325
0.569142 56.405
0.570528 56.165
0.571914 56.3275
0.573303 56.38
0.574689 56.3925
0.576075 56.2675
0.577461 56.4575
0.578847 56.24
0.580236 56.3425
0.581622 56.405
0.583008 56.33
0.584394 56.305
0.585781 56.4025
0.587169 56.1325
0.588556 56.3775
0.589942 56.2525
0.591328 56.22
0.592714 56.645
0.594103 56.44
0.595489 56.5025
0.596875 56.43
0.598261 56.275
0.599647 56.355
0.601036 56.35
0.602422 56.2
0.603808 56.5025
0.605194 56.435
0.606581 56.4425
0.607969 56.3925
0.609356 56.1625
0.610742 56.4075
0.612128 56.3575
0.613514 56.3425
0.614903 56.475
0.616289 56.34
0.617675 56.5525
0.619061 56.41
0.620447 56.4525
0.621836 56.325
0.623222 56.4525
0.624608 56.535
0.625994 56.08
0.627381 56.385
0.628769 56.3
0.630156 56.3575
0.631542 56.2875
0.632928 56.34
0.634314 56.5075
0.635703 56.56
0.637089 56.4
0.638475 56.2725
0.639861 56.3875
0.64125 56.425
0.642636 56.44
0.644022 56.4525
0.645408 56.48
0.646794 56.365
0.648181 56.3025
0.649569 56.5525
0.650956 56.4875
0.652342 56.5275
0.653728 56.525
0.655114 56.2675
0.656503 56.26
0.657889 56.4825
0.659275 56.11
0.660661 56.7425
0.662047 56.405
0.663436 57.205
0.664822 56.545
0.666208 56.315
0.667594 56.455
0.668981 56.295
0.670369 56.4375
0.671756 56.335
0.673142 56.4925
0.674528 56.555
0.675914 56.5675
0.677303 56.5075
0.678689 56.245
0.680075 56.2225
0.681461 56.3825
0.682847 56.405
0.684236 56.3625
0.685622 56.4225
0.687008 56.3975
0.688394 56.0425
0.689781 56.5025
0.691169 55.9825
0.692556 56.6575
0.693942 56.55
0.695328 56.4825
0.696714 56.325
0.698103 56.5225
0.699489 56.2575
0.700875 56.47
0.702261 56.63
0.703647 56.385
0.705036 56.5725
0.706422 56.23
0.707808 56.2725
0.709194 56.6275
0.710581 56.5
0.711969 56.3225
0.713356 56.39
0.714742 56.535
0.716128 56.41
0.717514 56.71
0.718903 56.5375
0.720289 56.5925
0.721675 56.4325
0.723061 56.32
0.724447 56.3125
0.725836 56.3075
0.727222 56.4575
0.728608 56.6375
0.729994 56.3875
0.731381 56.2075
0.732769 56.3425
0.734156 56.3725
0.735542 56.3625
0.736928 56.4225
0.738314 56.4675
0.739703 56.365
0.741089 56.695
0.742475 56.2925
0.743861 56.4525
0.745247 56.46
0.746636 56.5025
0.748022 56.5925
0.749408 56.525
0.750794 56.68
0.752181 56.5175
0.753569 56.28
0.754956 56.3825
0.756342 56.73
0.757728 56.425
0.759114 56.22
0.760503 56.3775
0.761889 56.2575
0.763275 56.52
0.764661 56.1675
0.766047 56.53
0.767436 56.6175
0.768822 56.3425
0.770208 56.7475
0.771594 56.5675
0.772981 56.6825
0.774369 56.4175
0.775756 56.49
0.777142 56.485
0.778528 56.4325
0.779914 56.45
0.781303 56.6675
0.782689 56.0625
0.784075 56.5125
0.785461 56.31
0.786847 56.395
0.788236 56.565
0.789622 56.615
0.791008 56.5525
0.792394 56.505
0.793781 56.415
0.795169 56.64
0.796556 56.445
0.797942 56.365
0.799328 56.5025
0.800714 56.4775
0.802103 56.6475
0.803489 56.28
0.804875 56.4275
0.806261 56.3125
0.807647 56.62
0.809036 56.5325
0.810422 56.49
0.811808 56.6075
0.813194 56.59
0.814583 56.3325
0.815969 56.56
0.817356 56.4225
0.818742 56.31
0.820128 56.67
0.821514 56.43
0.822903 56.7075
0.824289 56.34
0.825675 56.58
0.827061 56.415
0.828447 56.5425
0.829836 56.77
0.831222 56.48
0.832608 56.655
0.833994 56.595
0.835381 56.31
0.836769 56.5225
0.838156 56.6125
0.839542 56.455
0.840928 56.3975
0.842314 56.605
0.843703 56.3175
0.845089 56.565
0.846475 56.7425
0.847861 56.5575
0.849247 56.55
0.850636 56.53
0.852022 56.5225
0.853408 56.475
0.854794 56.6125
0.856181 56.335
0.857569 56.6275
0.858956 56.6825
0.860342 56.515
0.861728 56.565
0.863114 56.47
0.864503 56.49
0.865889 56.34
0.867275 56.4225
0.868661 56.3375
0.870047 56.395
0.871436 56.2575
0.872822 56.5375
0.874208 56.2625
0.875594 56.4725
0.876981 56.4575
0.878369 56.24
0.879756 56.51
0.881142 56.41
0.882528 56.6025
0.883914 56.4825
0.885303 56.565
0.886689 56.5525
0.888075 56.55
0.889461 56.5
0.890847 56.5675
0.892236 56.39
0.893622 56.38
0.895008 56.5125
0.896394 56.32
0.897781 56.5675
0.899169 56.505
0.900556 56.475
0.901942 56.4275
0.903328 56.175
0.904714 56.3675
0.906103 56.205
0.907489 56.395
0.908875 56.5275
0.910261 56.455
0.911647 56.6475
0.913036 56.4475
0.914422 56.3
0.915808 56.2375
0.917194 56.52
0.918581 56.2
0.919969 56.2675
0.921356 56.15
0.922742 56.06
0.924128 56.625
0.925514 56.425
0.926903 56.445
0.928289 56.465
0.929675 56.5325
0.931061 56.3875
0.932447 56.53
0.933836 56.645
0.935222 56.32
0.936608 56.505
0.937994 56.55
0.939381 56.4375
0.940769 56.305
0.942156 56.4325
0.943542 56.1575
0.944928 56.3625
0.946314 56.22
0.947703 56.7725
0.949089 56.56
0.950475 56.515
0.951861 56.5875
0.953247 56.4525
0.954636 56.44
0.956022 56.485
0.957408 56.3525
0.958794 56.52
0.960181 56.37
0.961569 56.2425
0.962956 56.3775
0.964342 56.29
0.965728 56.715
0.967114 56.5
0.968503 56.4275
0.969889 56.315
0.971275 56.42
0.972661 56.225
0.974047 56.3975
0.975436 56.365
0.976822 56.3175
0.978208 56.2075
0.979594 56.3875
0.980981 56.47
0.982369 56.4825
0.983756 56.495
0.985142 56.475
0.986528 56.7475
0.987917 56.525
0.989303 56.1725
0.990689 56.75
0.992075 56.625
0.993461 56.8375
0.994847 56.3075
0.996236 56.4275
0.997622 56.71
0.999008 56.5775
1.00039 56.545
1.00178 56.605
1.00317 56.505
1.00456 56.6325
1.00594 56.6
1.00733 56.505
1.00871 56.755
1.0101 56.5975
1.01149 56.5575
1.01287 56.7175
1.01426 56.67
1.01565 56.7975
1.01704 56.73
1.01842 56.705
1.01981 56.545
1.02119 56.6075
1.02258 56.56
1.02397 56.6725
1.02536 56.69
1.02674 56.7475
1.02813 56.6525
1.02951 56.57
1.0309 56.82
1.03229 56.87
1.03367 56.5
1.03506 56.7375
1.03645 56.7275
1.03784 56.555
1.03922 56.79
1.04061 56.5525
1.04199 56.675
1.04338 56.9575
1.04477 56.7925
1.04616 56.6825
1.04754 56.645
1.04893 56.8475
1.05031 56.675
1.0517 56.82
1.05309 56.7475
1.05447 56.985
1.05586 56.7075
1.05725 56.89
1.05864 56.8925
1.06002 57.055
1.06141 56.95
1.06279 56.9825
1.06418 56.76
1.06557 56.87
1.06696 56.735
1.06834 56.9175
1.06973 56.76
1.07111 56.8925
1.0725 57.01
1.07389 57.0725
1.07527 56.9875
1.07666 57.22
1.07805 56.8875
1.07944 56.77
1.08082 57.1625
1.08221 56.72
1.08359 57.075
1.08498 56.8225
1.08637 56.9125
1.08776 56.91
1.08914 56.96
1.09053 57.015
1.09191 57.1175
1.0933 57.195
1.09469 56.93
1.09608 57.015
1.09746 57.2575
1.09885 56.8175
1.10024 57.2375
1.10162 57.0175
1.10301 56.99
1.10439 56.8875
1.10578 56.955
1.10717 57.07
1.10856 57.0975
1.10994 57.13
1.11133 57.075
1.11271 57.0925
1.1141 57.025
1.11549 57.145
1.11688 57.0075
1.11826 57.0325
1.11965 57.0975
1.12104 56.98
1.12242 57.33
1.12381 57.2125
1.12519 57.26
1.12658 57.1175
1.12797 57.16
1.12936 57.19
1.13074 57.145
1.13213 57.4425
1.13351 57.2225
1.1349 57.0825
1.13629 57.33
1.13768 57.3775
1.13906 57.315
1.14045 56.99
1.14184 57.22
1.14322 57.035
1.14461 57.1375
1.14599 57.37
1.14738 57.105
1.14877 57.0775
1.15016 57.4475
1.15154 57.1175
1.15293 57.2975
1.15432 57.1675
1.1557 57.2625
1.15709 57.245
1.15848 57.0625
1.15986 57.3325
1.16125 57.395
1.16264 57.1525
1.16402 57.155
1.16541 57.5625
1.16679 57.245
1.16818 57.145
1.16957 57.0225
1.17096 57.08
1.17234 57.3075
1.17373 57.1275
1.17511 57.335
1.1765 57.4975
1.17789 57.155
1.17928 57.3725
1.18066 57.4
1.18205 57.5475
1.18344 57.39
1.18482 57.55
1.18621 57.4125
1.18759 57.675
1.18898 57.5625
1.19037 57.365
1.19176 57.2675
1.19314 57.185
1.19453 57.35
1.19591 57.5575
1.1973 57.2525
1.19869 57.165
1.20008 57.345
1.20146 57.5175
1.20285 57.4375
1.20424 57.685
1.20562 57.07
1.20701 57.3825
1.20839 57.415
1.20978 57.43
1.21117 57.195
1.21256 57.355
1.21394 57.3275
1.21533 57.275
1.21671 57.2725
1.2181 57.355
1.21949 57.3525
1.22088 57.53
1.22226 57.49
1.22365 57.66
1.22504 57.615
1.22642 57.61
1.22781 57.635
1.22919 57.785
1.23058 57.465
1.23197 57.6625
1.23336 57.64
1.23474 57.405
1.23613 57.55
1.23752 57.2525
1.2389 57.5525
1.24029 57.325
1.24168 57.435
1.24306 57.815
1.24445 57.4125
1.24584 57.5625
1.24722 57.66
1.24861 57.4475
1.24999 57.5575
1.25138 57.8575
1.25277 57.2025
1.25416 57.3
1.25554 57.4725
1.25693 57.4025
1.25831 57.535
1.2597 57.6475
1.26109 57.545
1.26248 57.3825
1.26386 57.5725
1.26525 57.3775
1.26664 57.53
1.26802 57.675
1.26941 57.7475
1.27079 57.74
1.27218 57.5075
1.27357 57.6725
1.27496 57.425
1.27634 57.3575
1.27773 57.795
1.27911 57.7825
1.2805 57.5975
1.28189 57.69
1.28328 57.88
1.28466 57.69
1.28605 57.7775
1.28744 57.72
1.28882 57.6325
1.29021 57.7
1.29159 57.53
1.29298 57.755
1.29437 57.7075
1.29576 57.7375
1.29714 57.68
1.29853 57.605
1.29991 57.6575
1.3013 57.5125
1.30269 57.6525
1.30408 57.605
1.30546 57.595
1.30685 57.6525
1.30824 57.515
1.30962 57.5675
1.31101 57.6525
1.31239 57.7025
1.31378 57.525
1.31517 57.4775
1.31656 57.5425
1.31794 57.62
1.31933 57.8775
1.32072 57.785
1.3221 57.67
1.32349 57.6125
1.32487 57.6325
1.32626 57.9175
1.32765 57.825
1.32904 57.6125
1.33042 57.8075
1.33181 57.66
1.33319 57.575
1.33458 57.52
1.33597 57.785
1.33736 57.83
1.33874 57.6625
1.34013 57.9275
1.34151 57.775
1.3429 57.555
1.34429 57.8425
1.34567 57.92
1.34706 57.885
1.34845 57.8625
1.34984 57.68
1.35122 57.4225
1.35261 57.5975
1.35399 57.935
1.35538 57.7675
1.35677 57.905
1.35816 57.6925
1.35954 57.44
1.36093 57.73
1.36231 57.9025
1.3637 57.5875
1.36509 57.825
1.36647 57.69
1.36786 57.9325
1.36925 57.525
1.37064 57.69
1.37202 57.48
1.37341 57.9125
1.37479 57.975
1.37618 57.7875
1.37757 57.6825
1.37896 58.0575
1.38034 57.8925
1.38173 57.8
1.38311 57.795
1.3845 57.6675
1.38589 57.66
1.38727 57.91
1.38866 57.5675
1.39005 57.805
1.39144 57.43
1.39282 57.8225
1.39421 57.8525
1.39559 57.85
1.39698 57.72
1.39837 57.5775
1.39976 57.7875
1.40114 57.79
1.40253 57.8475
1.40392 58
1.4053 57.8475
1.40669 57.5625
1.40807 57.6975
1.40946 57.5675
1.41085 58.06
1.41224 57.8525
1.41362 57.505
1.41501 57.6525
1.41639 57.535
1.41778 57.7275
1.41917 57.8925
1.42056 57.85
1.42194 57.6825
1.42333 57.405
1.42471 57.7175
1.4261 57.6975
1.42749 57.7125
1.42887 57.94
1.43026 57.87
1.43165 57.7575
1.43304 57.7525
1.43442 57.7
1.43581 57.6325
1.43719 57.5825
1.43858 58.035
1.43997 57.7725
1.44136 57.69
1.44274 57.7225
1.44413 57.9975
1.44551 57.93
1.4469 57.6625
1.44829 57.695
1.44967 57.645
1.45106 57.695
1.45245 57.8825
1.45384 57.985
1.45522 57.93
1.45661 57.8525
1.45799 57.9425
1.45938 57.6275
1.46077 57.6775
1.46216 57.9075
1.46354 57.565
1.46493 57.8825
1.46631 58
1.4677 57.7675
1.46909 57.9825
1.47047 57.74
1.47186 57.8425
1.47325 57.88
1.47464 57.5125
1.47602 57.9
1.47741 57.9025
1.47879 57.93
1.48018 57.7075
1.48157 57.97
1.48296 57.755
1.48434 57.69
1.48573 57.945
1.48712 57.8825
1.4885 58.1
1.48989 58.1425
1.49127 57.705
1.49266 57.81
1.49405 57.8725
1.49544 57.6475
1.49682 57.71
1.49821 57.7125
1.49959 57.74
1.50098 58.04
1.50237 57.7425
1.50376 57.9225
1.50514 57.81
1.50653 58.0375
1.50792 57.71
1.5093 57.965
1.51069 57.9325
1.51207 57.5425
1.51346 57.87
1.51485 57.635
1.51624 57.8775
1.51762 57.955
1.51901 57.98
1.52039 57.7425
1.52178 57.645
1.52317 58.055
1.52456 57.8475
1.52594 57.6675
1.52733 58.025
1.52871 57.74
1.5301 58.24
1.53149 57.9525
1.53287 58.01
1.53426 57.8325
1.53565 57.8225
1.53704 57.7575
1.53842 57.8025
1.53981 57.815
1.54119 57.76
1.54258 58.055
1.54397 57.85
1.54536 57.6875
1.54674 57.7625
1.54813 57.925
1.54951 57.7375
1.5509 57.7675
1.55229 57.6725
1.55368 57.8975
1.55506 57.86
1.55645 57.775
1.55784 58.1
1.55922 57.9125
1.56061 57.96
1.56199 58.18
1.56338 57.9525
1.56477 58.1425
1.56616 57.8775
1.56754 58.065
1.56893 57.9275
1.57031 57.8
1.5717 57.9175
1.57309 57.9625
1.57448 57.9125
1.57586 58.025
1.57725 57.8775
1.57864 57.89
1.58002 57.9725
1.58141 57.9775
1.58279 58.035
1.58418 58.0175
1.58557 58.31
1.58696 57.9175
1.58834 58.1225
1.58973 57.99
1.59112 57.9625
1.5925 57.7825
1.59389 58.2325
1.59528 58.0925
1.59666 57.945
1.59805 58.1475
1.59944 58.0125
1.60082 58.2075
1.60221 57.9775
1.60359 57.9725
1.60498 57.81
1.60637 58.03
1.60776 57.64
1.60914 58.1825
1.61053 58.055
1.61191 58.2975
1.6133 58.26
1.61469 58.24
1.61608 58.1375
1.61746 58.21
1.61885 57.72
1.62024 58.3125
1.62162 57.885
1.62301 57.9
1.62439 58.0375
1.62578 58.0325
1.62717 58.04
1.62856 58.0075
1.62994 58.1425
1.63133 58.005
1.63271 58.0825
1.6341 58.03
1.63549 57.86
1.63688 58.1475
1.63826 57.8875
1.63965 57.9125
1.64104 58.01
1.64242 57.975
1.64381 57.9675
1.64519 57.7575
1.64658 58.1525
1.64797 57.94
1.64936 58.0225
1.65074 57.9025
1.65213 57.99
1.65351 58.18
1.6549 57.9975
1.65629 57.8725
1.65768 58.06
1.65906 58.105
1.66045 58.1575
1.66184 58.3625
1.66322 58.1375
1.66461 57.995
1.66599 57.72
1.66738 57.7425
1.66877 58.1125
1.67016 58.575
1.67154 58.3475
1.67293 58.0775
1.67432 57.9375
1.6757 58
1.67709 58.105
1.67848 58.0125
1.67986 57.9325
1.68125 58.0025
1.68264 58.08
1.68402 57.96
1.68541 58.115
1.68679 58.04
1.68818 57.8375
1.68957 58.0325
1.69096 57.8675
1.69234 57.9525
1.69373 57.75
1.69511 58.0575
1.6965 58.17
1.69789 58.12
1.69928 57.9775
1.70066 57.8975
1.70205 57.8875
1.70344 58.015
1.70482 58.35
1.70621 58.185
1.70759 58.0375
1.70898 58.0375
1.71037 57.9475
1.71176 58.035
1.71314 58.3
1.71453 58.0775
1.71591 57.9675
1.7173 58.2425
1.71869 58.0075
1.72008 57.7325
1.72146 58.285
1.72285 57.94
1.72424 58.26
1.72562 57.8175
1.72701 58.2375
1.72839 58.305
1.72978 58.2475
1.73117 58.1325
1.73256 58.275
1.73394 58.06
1.73533 57.84
1.73671 58.02
1.7381 58.0525
1.73949 58.235
1.74088 58.28
1.74226 58.1025
1.74365 58.2175
1.74504 58.12
1.74642 58.26
1.74781 58.02
1.74919 58.295
1.75058 57.9
1.75197 57.9725
1.75336 57.8775
1.75474 57.705
1.75613 58.0325
1.75752 58.0975
1.7589 58.205
1.76029 58.105
1.76168 58.0925
1.76306 58.1175
1.76445 57.905
1.76584 58.0825
1.76722 58.0575
1.76861 58.125
1.76999 58.3975
1.77138 57.87
1.77277 58.36
1.77416 58.225
1.77554 57.9425
1.77693 58.4075
1.77831 57.6
1.7797 58.1975
1.78109 58.085
1.78247 58.1975
1.78386 58
1.78525 57.8425
1.78664 58.2375
1.78802 57.9975
1.78941 57.775
1.79079 58.0925
1.79218 57.9425
1.79357 57.8325
1.79496 58.165
1.79634 57.89
1.79773 58.3175
1.79911 58.05
1.8005 58.2975
1.80189 58.0925
1.80327 57.9975
1.80466 58.125
1.80605 58.075
1.80744 58.075
1.80882 58.2425
1.81021 57.9025
1.81159 58.125
1.81298 58.1275
1.81437 58.1225
1.81576 57.96
1.81714 57.9625
1.81853 58.2425
1.81991 57.9875
1.8213 58.0625
1.82269 58.22
1.82407 58.2275
1.82546 58.065
1.82685 58.15
1.82824 58.07
1.82962 58.065
1.83101 58.3025
1.83239 57.885
1.83378 57.8775
1.83517 58.1
1.83656 58.21
1.83794 58.0825
1.83933 58.165
1.84072 57.9375
1.8421 58.1525
1.84349 58.065
1.84487 58.21
1.84626 58.3075
1.84765 58.145
1.84904 58.23
1.85042 58.02
1.85181 58.08
1.85319 58.12
1.85458 57.9225
1.85597 57.9725
1.85736 57.7975
1.85874 58.3225
1.86013 58.06
1.86151 58.125
1.8629 58.1325
1.86429 58.045
1.86567 58.0375
1.86706 57.9175
1.86845 58.175
1.86984 58.0725
1.87122 58.0725
1.87261 58.1125
1.87399 57.9925
1.87538 58.0125
1.87677 58.2475
1.87816 58.295
1.87954 58.3175
1.88093 58.28
1.88231 57.78
1.8837 58.4825
1.88509 57.935
1.88647 58.435
1.88786 58.17
1.88925 58.225
1.89064 57.9925
1.89202 57.87
1.89341 58.035
1.89479 58.3225
1.89618 58.1
1.89757 58.4825
1.89896 58.1475
1.90034 58.0675
1.90173 58.165
1.90311 58.33
1.9045 58.155
1.90589 58.1525
1.90727 58.4575
1.90866 58.195
1.91005 58.2775
1.91144 58.4325
1.91282 58.2175
1.91421 58.3025
1.91559 58.355
1.91698 58.0275
1.91837 58.21
1.91976 58.0475
1.92114 58.2175
1.92253 58.3075
1.92392 58.375
1.9253 57.8925
1.92669 58.16
1.92807 58.0875
1.92946 58.395
1.93085 58.0675
1.93224 58.14
1.93362 58.1325
1.93501 58.1675
1.93639 58.14
1.93778 58.2275
1.93917 57.9275
1.94056 58.1575
1.94194 58.05
1.94333 58.045
1.94471 57.9075
1.9461 58.0825
1.94749 58.015
1.94887 58.33
1.95026 58.17
1.95165 58.32
1.95304 57.8425
1.95442 58.235
1.95581 58.1575
1.95719 58.1925
1.95858 58.065
1.95997 57.9525
1.96136 58.0825
1.96274 58.1625
1.96413 57.9475
1.96551 58.1275
1.9669 58.045
1.96829 58.28
1.96967 58.025
1.97106 58.085
1.97245 58.035
1.97384 57.8875
1.97522 58.015
1.97661 57.895
1.97799 57.855
1.97938 58.1675
1.98077 57.9225
1.98216 58.1625
1.98354 58.185
1.98493 57.945
1.98631 57.8325
1.9877 57.8625
1.98909 57.92
1.99048 58.4075
1.99186 58.1375
1.99325 58.1625
1.99464 57.9975
1.99602 57.8775
